"Time (s)","Linear Acceleration x (m/s^2)","Linear Acceleration y (m/s^2)","Linear Acceleration z (m/s^2)","Absolute acceleration (m/s^2)"
1.749937800E-2,-6.051182747E-2,-2.272577286E-1,-3.280685902E0,3.289104398E0
1.999416200E-2,-1.251196861E-2,-5.220794678E-2,-3.058685780E0,3.059156896E0
2.248916000E-2,1.162996292E-1,6.361055374E-2,-2.810630560E0,2.813754796E0
2.498400800E-2,3.052823544E-1,6.358957291E-2,-2.546597958E0,2.565619244E0
2.747877700E-2,4.871544838E-1,4.556655884E-3,-2.229986191E0,2.282581579E0
2.997378000E-2,6.880879402E-1,-7.947921753E-2,-1.903808594E0,2.025899583E0
3.246855100E-2,8.433423042E-1,-1.112980843E-1,-1.587731838E0,1.801251203E0
3.496339500E-2,9.312102795E-1,-1.933779716E-1,-1.247693539E0,1.568848874E0
3.745839500E-2,9.951777458E-1,-2.094421387E-1,-9.705939293E-1,1.405808426E0
3.995316700E-2,1.037751436E0,-2.423906326E-1,-6.693105698E-1,1.258434703E0
4.244803000E-2,1.024431229E0,-2.194285393E-1,-3.977713585E-1,1.120638336E0
4.494280100E-2,9.709613323E-1,-1.683068275E-1,-1.126732826E-1,9.918610617E-1
4.743779900E-2,9.432840347E-1,-1.472878456E-1,1.143999100E-1,9.615434567E-1
4.993264700E-2,9.360079765E-1,-1.381416321E-1,3.684887886E-1,1.015370883E0
5.242741600E-2,9.437990189E-1,-1.435976028E-1,6.411404610E-1,1.149973022E0
5.492243300E-2,9.265367985E-1,-2.103085518E-1,8.610987663E-1,1.282260196E0
5.741728200E-2,9.804506302E-1,-2.385840416E-1,1.062296391E0,1.465155079E0
5.991205100E-2,1.016312122E0,-2.914628983E-1,1.296158791E0,1.672683043E0
6.240704900E-2,9.708044529E-1,-3.663311005E-1,1.505503178E0,1.828441845E0
6.490184400E-2,8.918035030E-1,-4.670038223E-1,1.692339897E0,1.969116651E0
6.739668800E-2,8.184537888E-1,-5.012388229E-1,1.881473541E0,2.112119705E0
6.989168800E-2,7.405862808E-1,-5.265994072E-1,2.090455055E0,2.279424777E0
7.238646000E-2,6.205575466E-1,-5.691661835E-1,2.183146000E0,2.339907748E0
7.488130400E-2,5.346016884E-1,-5.958285332E-1,2.266820431E0,2.404014449E0
7.737609400E-2,4.180984497E-1,-5.912284851E-1,2.297184467E0,2.408612445E0
7.987109200E-2,2.651543617E-1,-5.668573380E-1,2.236791611E0,2.322686115E0
8.236594000E-2,1.352090836E-1,-5.518260002E-1,2.081799984E0,2.157935264E0
8.486070900E-2,5.132818222E-2,-5.494332314E-1,1.923202991E0,2.000805139E0
8.735570700E-2,-1.986980438E-2,-5.398974419E-1,1.767176151E0,1.847916558E0
8.985060300E-2,-6.574201584E-2,-5.153765678E-1,1.555668831E0,1.640134303E0
9.234537300E-2,-9.976601601E-2,-4.937000275E-1,1.407991409E0,1.495370450E0
9.484037100E-2,-1.205363274E-1,-5.050935745E-1,1.309173584E0,1.408397670E0
9.733514200E-2,-1.485068798E-1,-4.704456329E-1,1.192118645E0,1.290162877E0
9.983001500E-2,-1.419916153E-1,-4.614915848E-1,9.783706665E-1,1.091029451E0
1.023250150E-1,-1.177210808E-1,-4.416618347E-1,8.244628906E-1,9.426889663E-1
1.048197860E-1,-8.344960213E-2,-4.337792397E-1,6.915335655E-1,8.205771975E-1
1.073146310E-1,-7.762360573E-2,-4.307098389E-1,6.071591377E-1,7.484508053E-1
1.098094020E-1,-1.065444946E-2,-4.057149887E-1,4.750604630E-1,6.248204645E-1
1.123044330E-1,1.041750908E-1,-3.754386902E-1,3.691320419E-1,5.367169869E-1
1.147992810E-1,1.997799873E-1,-3.744845390E-1,3.493909836E-1,5.497497364E-1
1.172940500E-1,3.104829788E-1,-3.798360825E-1,2.822308540E-1,5.659764877E-1
1.197890480E-1,4.145364761E-1,-3.937869072E-1,2.318172455E-1,6.169666552E-1
1.222838960E-1,4.899449348E-1,-3.698024750E-1,1.938757896E-1,6.437295484E-1
1.247786900E-1,5.665233135E-1,-3.371028900E-1,1.836647987E-1,6.843389376E-1
1.272736880E-1,6.512842178E-1,-3.312902451E-1,1.734719276E-1,7.510105649E-1
1.297684590E-1,7.362413406E-1,-3.095092773E-1,1.954312325E-1,8.222169246E-1
1.322633030E-1,8.500490189E-1,-2.745575905E-1,1.591954231E-1,9.073634265E-1
1.347583030E-1,9.995946884E-1,-2.808790207E-1,6.141519547E-2,1.040122296E0
1.372530930E-1,1.136165857E0,-2.866873741E-1,5.548477173E-2,1.173090391E0
1.397479370E-1,1.222700357E0,-2.769770622E-1,1.017289162E-1,1.257800155E0
1.422427090E-1,1.332388401E0,-2.995324135E-1,1.304149628E-1,1.371855160E0
1.447377070E-1,1.375045061E0,-3.175630569E-1,1.816172600E-1,1.422877382E0
1.472325550E-1,1.452565432E0,-3.407597542E-1,2.438287735E-1,1.511792318E0
1.497273430E-1,1.490044594E0,-3.609418869E-1,2.679219246E-1,1.556372094E0
1.522223410E-1,1.504584074E0,-3.448376656E-1,2.965493202E-1,1.571823066E0
1.547171120E-1,1.472124577E0,-3.200445175E-1,3.495516777E-1,1.546533426E0
1.572119560E-1,1.423237324E0,-2.901124954E-1,4.002575874E-1,1.506643911E0
1.597069560E-1,1.408013105E0,-2.673006058E-1,4.392595291E-1,1.498966128E0
1.622017280E-1,1.364398241E0,-2.624506950E-1,4.589614868E-1,1.463252738E0
1.646965720E-1,1.302979231E0,-2.607965469E-1,4.817810059E-1,1.413464769E0
1.671915720E-1,1.253601789E0,-2.858824730E-1,4.107904434E-1,1.349812959E0
1.696863430E-1,1.182113886E0,-3.070220947E-1,3.676905632E-1,1.275481147E0
1.721811870E-1,1.024747133E0,-2.420811653E-1,3.849835396E-1,1.121125463E0
1.746759580E-1,8.847005367E-1,-1.832489967E-1,4.857530594E-1,1.025783247E0
1.771709560E-1,7.924644947E-1,-1.589913368E-1,5.133037567E-1,9.574753089E-1
1.796658050E-1,7.102754116E-1,-1.481919289E-1,4.729800224E-1,8.661189928E-1
1.821605740E-1,6.203682423E-1,-1.873879433E-1,4.996199608E-1,8.182854652E-1
1.846553430E-1,6.035797596E-1,-2.579598427E-1,5.636582375E-1,8.651950158E-1
1.871503560E-1,4.710140228E-1,-2.550067902E-1,6.371159554E-1,8.323457294E-1
1.896452040E-1,3.367288113E-1,-2.439703941E-1,6.773080826E-1,7.947666854E-1
1.921402020E-1,2.320392132E-1,-2.668943405E-1,6.686382294E-1,7.564072099E-1
1.946349740E-1,1.359715462E-1,-2.587633133E-1,5.986332893E-1,6.661895592E-1
1.971298180E-1,6.517243385E-2,-2.812004089E-1,5.811710358E-1,6.489074579E-1
1.996245450E-1,3.230810165E-2,-2.829918861E-1,5.658240318E-1,6.334706434E-1
2.021195430E-1,2.100133896E-2,-2.902159691E-1,5.905013084E-1,6.582994457E-1
2.046143140E-1,4.317164421E-2,-3.129110336E-1,6.131663322E-1,6.897463714E-1
2.071091580E-1,4.350733757E-2,-3.007583618E-1,6.417202950E-1,7.100376170E-1
2.096041430E-1,8.858680725E-2,-2.975735664E-1,7.124729156E-1,7.771842159E-1
2.120989910E-1,1.786229610E-1,-2.802963257E-1,8.834657669E-1,9.439194636E-1
2.145937610E-1,2.673692703E-1,-2.810659409E-1,7.844834328E-1,8.751563552E-1
2.170887590E-1,3.344573975E-1,-3.372888565E-1,5.764498711E-1,7.469404108E-1
2.195835300E-1,4.175465107E-1,-3.597888947E-1,4.966158867E-1,7.419032796E-1
2.220783840E-1,5.136117935E-1,-2.946352959E-1,5.442938805E-1,8.042778502E-1
2.245731550E-1,6.445729733E-1,-2.403917313E-1,5.227828026E-1,8.640395598E-1
2.270681530E-1,7.859222889E-1,-2.336845398E-1,4.689922333E-1,9.445824597E-1
2.295630020E-1,8.711280823E-1,-2.812447548E-1,3.710007668E-1,9.877268432E-1
2.320577710E-1,9.390861988E-1,-3.088335991E-1,2.560024261E-1,1.021174972E0
2.345527640E-1,9.965913296E-1,-3.454647064E-1,1.669387817E-1,1.067899199E0
2.370476120E-1,1.023277760E0,-3.750147820E-1,2.082486153E-1,1.109549884E0
2.395423810E-1,1.049123287E0,-4.052166939E-1,1.626429558E-1,1.136359526E0
2.420373790E-1,1.010096073E0,-3.914990425E-1,1.006565094E-1,1.087978543E0
2.445321500E-1,9.776599407E-1,-3.747487068E-1,-6.980895996E-3,1.047045503E0
2.470270000E-1,9.854724407E-1,-3.605952263E-1,-3.760337830E-2,1.050047076E0
2.495220000E-1,1.007954836E0,-3.110804558E-1,-5.906295776E-2,1.056519017E0
2.520167710E-1,1.019198656E0,-3.013744354E-1,-1.358909607E-1,1.071475060E0
2.545116150E-1,1.026523113E0,-2.639656067E-1,-2.724456787E-1,1.094373881E0
2.570066150E-1,9.833981991E-1,-2.971982956E-1,-3.318023682E-1,1.079579389E0
2.595013710E-1,8.518590927E-1,-3.609681129E-1,-3.783802986E-1,9.995666775E-1
2.619962150E-1,2.834596634E-1,-7.971224785E-1,-2.867369652E-1,8.932926249E-1
2.644909870E-1,-8.240180016E-1,-1.467404366E0,2.731657028E-1,1.704963560E0
2.669859850E-1,-8.760488033E-1,-8.811607361E-1,2.316932678E-1,1.263957087E0
2.694808280E-1,-8.263702393E-1,-4.278016090E-1,2.662835121E-1,9.678888871E-1
2.719755970E-1,-7.471528053E-1,-1.525392532E-1,8.852386475E-2,7.676861422E-1
2.744705950E-1,-5.579757690E-1,1.384296417E-1,-5.973434448E-2,5.779860867E-1
2.769653660E-1,-3.381788731E-1,4.327425957E-1,1.457176208E-1,5.682118701E-1
2.794602000E-1,-1.263246536E-1,6.212444305E-1,3.756818771E-1,7.369120934E-1
2.819549720E-1,1.071860790E-1,7.078146935E-1,4.230012894E-1,8.315170393E-1
2.844499700E-1,3.100149632E-1,6.315779686E-1,3.081011772E-1,7.680666268E-1
2.869447410E-1,4.954333305E-1,4.285626411E-1,1.915369034E-1,6.825001888E-1
2.894395850E-1,6.339893341E-1,1.405611038E-1,7.181262970E-2,6.533429065E-1
2.919345950E-1,7.240717411E-1,-1.343564987E-1,-5.647277832E-2,7.385937515E-1
2.944294430E-1,7.663550377E-1,-3.944134712E-1,-8.482933044E-2,8.660589156E-1
2.969242120E-1,7.138769627E-1,-5.618782043E-1,-2.051506042E-1,9.313507421E-1
2.994189820E-1,5.638556480E-1,-6.261878014E-1,-4.687232971E-1,9.642333139E-1
3.019139320E-1,4.090869427E-1,-6.131806374E-1,-6.799688339E-1,1.002846068E0
3.044087800E-1,2.860009670E-1,-5.223040581E-1,-8.409628868E-1,1.030444884E0
3.069035490E-1,2.030529976E-1,-4.164633751E-1,-9.771094322E-1,1.081394981E0
3.093985470E-1,1.593317986E-1,-3.069252968E-1,-1.105135918E0,1.157978910E0
3.118933180E-1,1.086752415E-1,-2.451539040E-1,-1.128049374E0,1.159485288E0
3.143884020E-1,1.028361320E-1,-2.296714783E-1,-1.206005573E0,1.231979586E0
3.168831730E-1,1.354477406E-1,-2.257280350E-1,-1.175345421E0,1.204465066E0
3.193780200E-1,2.014179230E-1,-2.691335678E-1,-1.191142559E0,1.237668232E0
3.218727890E-1,3.020989895E-1,-3.052396774E-1,-1.166981220E0,1.243495166E0
3.243677870E-1,3.265783787E-1,-3.579487801E-1,-1.164856434E0,1.261614552E0
3.268625630E-1,3.373670578E-1,-3.413996696E-1,-1.204578876E0,1.296680584E0
3.293574070E-1,3.401141167E-1,-3.045792580E-1,-1.327302933E0,1.403630725E0
3.318521790E-1,3.799238205E-1,-2.910208702E-1,-1.375820160E0,1.456679913E0
3.343471770E-1,4.304072857E-1,-3.186249733E-1,-1.353181839E0,1.455291515E0
3.368420250E-1,5.029025078E-1,-3.699841499E-1,-1.258745193E0,1.405076036E0
3.393369890E-1,6.568670273E-1,-4.889612198E-1,-1.101385593E0,1.372445843E0
3.418317600E-1,7.674810886E-1,-5.714540482E-1,-1.005009651E0,1.387671196E0
3.443265290E-1,7.790367603E-1,-5.861043930E-1,-9.317331314E-1,1.348533745E0
3.468213730E-1,7.569005489E-1,-6.177625656E-1,-8.717169762E-1,1.309358436E0
3.493163730E-1,7.095746994E-1,-6.443157196E-1,-8.505969048E-1,1.281465604E0
3.518111550E-1,6.430928707E-1,-7.121820450E-1,-1.123650551E0,1.477620474E0
3.543059990E-1,4.479789734E-1,-7.313914299E-1,-1.556681633E0,1.777322787E0
3.568007700E-1,1.807925701E-1,-6.700959206E-1,-1.668387413E0,1.806995035E0
3.592958450E-1,-1.756911278E-1,-6.154808998E-1,-1.281888008E0,1.432801792E0
3.617906160E-1,-4.547457695E-1,-6.078500748E-1,-7.732210159E-1,1.083580254E0
3.642853990E-1,-7.201280594E-1,-6.868214607E-1,-3.307099342E-1,1.048654949E0
3.667803970E-1,-9.107420444E-1,-6.707844734E-1,-1.389880180E-1,1.139614211E0
3.692751690E-1,-1.134348631E0,-6.617064476E-1,-6.102895737E-2,1.314658424E0
3.717700130E-1,-1.255776644E0,-6.266837120E-1,-1.713576317E-1,1.413885035E0
3.742650130E-1,-1.412470579E0,-6.817049980E-1,-2.290830612E-1,1.585015423E0
3.767597840E-1,-2.677431583E0,-1.602051735E0,-5.145297050E-1,3.162269828E0
3.792546280E-1,-3.564427853E0,-2.140958309E0,-4.262232780E-1,4.179774477E0
3.817496280E-1,-3.881416798E0,-2.285658360E0,1.718258858E-1,4.507677299E0
3.842443990E-1,-3.746011734E0,-2.169234753E0,1.309003830E-1,4.330741072E0
3.867392440E-1,-3.321600199E0,-1.841105938E0,-1.770558357E-1,3.801847935E0
3.892340450E-1,-2.949277163E0,-1.402288914E0,-4.197225571E-1,3.292539598E0
3.917290430E-1,-2.676685095E0,-8.364057541E-1,-4.096360207E-1,2.834081748E0
3.942238910E-1,-2.850736380E0,-2.794599533E-1,1.084012985E-1,2.866451921E0
3.967186600E-1,-3.170082569E0,2.532100677E-1,5.438814163E-1,3.226351783E0
3.992136580E-1,-3.380127668E0,5.538058281E-1,9.116759300E-1,3.544448751E0
4.017084150E-1,-3.454738617E0,6.705660820E-1,9.232282639E-1,3.638300181E0
4.042032600E-1,-3.185453892E0,5.318236351E-1,7.164421082E-1,3.308057159E0
4.066982600E-1,-2.767677784E0,4.195833206E-1,3.302578926E-1,2.818716154E0
4.091930310E-1,-2.290791988E0,4.682869911E-1,-2.903833389E-1,2.356128843E0
4.116878750E-1,-2.015014410E0,9.154386520E-1,-1.040392876E0,2.445552767E0
4.141826360E-1,-1.759376049E0,1.337340832E0,-1.318818092E0,2.573551193E0
4.166776340E-1,-1.282653570E0,1.421181202E0,-1.320870399E0,2.325866463E0
4.191724820E-1,-5.999550819E-1,1.314364433E0,-1.219876289E0,1.890925203E0
4.216672520E-1,2.048747540E-1,9.813103676E-1,-9.734630585E-1,1.397345350E0
4.241622400E-1,1.065053463E0,5.279593468E-1,-7.225985527E-1,1.391124947E0
4.266570880E-1,1.866003275E0,-1.373291016E-4,-5.139951706E-1,1.935499748E0
4.291518570E-1,2.584146738E0,-4.870781898E-1,-4.169898033E-1,2.662506342E0
4.316468550E-1,3.224765778E0,-8.595666885E-1,-4.165911674E-1,3.363259938E0
4.341416260E-1,3.917368889E0,-1.148964405E0,-4.323811531E-1,4.105222488E0
4.366364800E-1,4.329757690E0,-1.315046310E0,-5.463085175E-1,4.557916350E0
4.391314800E-1,4.269935608E0,-1.388429642E0,-5.899119377E-1,4.528585106E0
4.416262520E-1,4.000960350E0,-1.443146229E0,-5.034117699E-1,4.282963713E0
4.441210960E-1,3.763611794E0,-1.494650364E0,-3.152804375E-1,4.061792116E0
4.466158670E-1,3.526468992E0,-1.492585182E0,-1.280612946E-1,3.831474099E0
4.491108600E-1,3.171070814E0,-1.457988739E0,2.284049988E-3,3.490190036E0
4.516057080E-1,2.683418036E0,-1.293824673E0,1.985373497E-1,2.985654320E0
4.541004780E-1,2.176708698E0,-1.088879585E0,4.042482376E-1,2.467212222E0
4.565954760E-1,1.721214294E0,-8.639712334E-1,5.784316063E-1,2.010872463E0
4.590902470E-1,1.348647594E0,-7.335524559E-1,6.775403023E-1,1.678097256E0
4.615850870E-1,1.029631376E0,-6.678199768E-1,7.376990318E-1,1.431895301E0
4.640800870E-1,8.277964592E-1,-6.977214813E-1,7.017965317E-1,1.290186272E0
4.665748580E-1,6.100618839E-1,-8.047370911E-1,6.829404831E-1,1.219091872E0
4.690697020E-1,3.843708038E-1,-9.246635437E-1,6.822981834E-1,1.211723729E0
4.715646870E-1,1.762881279E-1,-9.941658974E-1,6.735582352E-1,1.213723210E0
4.740594590E-1,-4.314112663E-2,-1.062936783E0,6.777758598E-1,1.261378562E0
4.765543030E-1,-2.476227283E-1,-1.065968990E0,7.821536064E-1,1.345128681E0
4.790490740E-1,-4.570367336E-1,-1.036415577E0,8.909993172E-1,1.441152180E0
4.815440720E-1,-6.196148396E-1,-9.649653435E-1,9.685306549E-1,1.501043735E0
4.840389150E-1,-7.291400433E-1,-8.751206398E-1,1.002125263E0,1.517147448E0
4.865336840E-1,-7.888391018E-1,-7.751016617E-1,9.355378151E-1,1.448544344E0
4.890286820E-1,-8.351454735E-1,-6.994657516E-1,8.758754730E-1,1.397811913E0
4.915234540E-1,-8.001098633E-1,-6.185283661E-1,8.382244110E-1,1.313534657E0
4.940182980E-1,-7.560744286E-1,-6.052193642E-1,8.070774078E-1,1.260679564E0
4.965133320E-1,-6.771779060E-1,-5.867762566E-1,7.020463943E-1,1.138308144E0
4.990081030E-1,-5.998346806E-1,-5.837397575E-1,6.353259087E-1,1.050805766E0
5.015029470E-1,-4.717152119E-1,-5.793051720E-1,5.103673935E-1,9.047566522E-1
5.039977180E-1,-3.736035824E-1,-5.858998299E-1,4.166841507E-1,8.102369585E-1
5.064927160E-1,-2.714924812E-1,-5.636568069E-1,3.171229362E-1,7.014157969E-1
5.089875600E-1,-1.629722118E-1,-5.441799164E-1,2.238283157E-1,6.105659982E-1
5.114823290E-1,-4.035735130E-2,-5.034885406E-1,1.388783455E-1,5.238478989E-1
5.139773270E-1,5.681562424E-2,-4.655394554E-1,3.769159317E-2,4.705057448E-1
5.164720980E-1,2.389082909E-1,-4.137544632E-1,-5.515861511E-2,4.809494777E-1
5.189669420E-1,3.890106678E-1,-3.858456612E-1,-1.342005730E-1,5.641063443E-1
5.214619570E-1,5.665798187E-1,-3.535909653E-1,-2.692241669E-1,7.200839630E-1
5.239567280E-1,6.957883835E-1,-3.065762520E-1,-3.948483467E-1,8.567471563E-1
5.264515730E-1,8.389914036E-1,-2.636208534E-1,-5.192112923E-1,1.021265340E0
5.289465730E-1,9.732244015E-1,-2.148351669E-1,-6.350030899E-1,1.181756662E0
5.314413440E-1,1.028602362E0,-1.857681274E-1,-7.419114113E-1,1.281782024E0
5.339362020E-1,1.094288826E0,-1.430392265E-1,-9.017028809E-1,1.425130289E0
5.364309730E-1,1.112630606E0,-1.086483002E-1,-1.011413097E0,1.507550255E0
5.389259710E-1,1.263556719E0,-3.965578079E-1,-1.183062077E0,1.775801102E0
5.414208190E-1,1.709800243E0,-9.263978004E-1,-1.851085186E0,2.684799084E0
5.439155990E-1,1.686104059E0,-6.632380486E-1,-1.821014881E0,2.568837637E0
5.464105970E-1,1.839947224E0,-5.923037529E-1,-1.425608635E0,2.401788813E0
5.489053680E-1,1.743020773E0,-2.284312248E-1,-1.282219887E0,2.175865363E0
5.514002120E-1,1.536109924E0,1.867613792E-1,-1.369648933E0,2.066507129E0
5.538952120E-1,1.713394165E0,4.289484024E-2,-1.607629299E0,2.349900316E0
5.563899730E-1,1.752415657E0,5.731105804E-2,-2.184266567E0,2.800940133E0
5.588848170E-1,1.170175791E0,5.656218529E-1,-1.986952305E0,2.374282823E0
5.613795890E-1,8.770713806E-1,8.493499756E-1,-1.757975101E0,2.140356523E0
5.638745870E-1,1.133827448E0,6.817798615E-1,-1.882402897E0,2.300832268E0
5.663694350E-1,1.501831293E0,4.174585342E-1,-2.454509258E0,2.907642440E0
5.688642090E-1,1.086234570E0,7.176623344E-1,-2.583528996E0,2.893020366E0
5.713592070E-1,8.384461403E-1,9.529953003E-1,-2.408244133E0,2.722284294E0
5.738539780E-1,8.819453716E-1,1.051313400E0,-2.432719231E0,2.793064689E0
5.763488220E-1,1.060459375E0,1.069100380E0,-2.473325253E0,2.895667024E0
5.788438310E-1,1.211640835E0,1.115598202E0,-2.366743088E0,2.883419100E0
5.813386030E-1,1.312458515E0,1.162958145E0,-2.176673889E0,2.795161573E0
5.838334470E-1,1.370819569E0,1.186525822E0,-1.978499413E0,2.683551703E0
5.863282180E-1,1.525542736E0,1.196299076E0,-1.713033676E0,2.587063295E0
5.888232160E-1,1.723934412E0,1.209801674E0,-1.466918468E0,2.566596918E0
5.913180790E-1,1.955680132E0,1.166018963E0,-1.242188931E0,2.593707451E0
5.938128490E-1,2.192275286E0,1.166329384E0,-1.034578323E0,2.690120344E0
5.963078470E-1,2.451107264E0,1.170559406E0,-8.338799477E-1,2.841389081E0
5.988026180E-1,2.710683107E0,1.167735100E0,-5.775208473E-1,3.007480424E0
6.012974620E-1,2.981438160E0,1.201716423E0,-2.883400917E-1,3.227419383E0
6.037924710E-1,3.262428522E0,1.278476238E0,-1.065254211E-3,3.503989510E0
6.062872420E-1,3.512311935E0,1.326416492E0,3.090519905E-1,3.767124762E0
6.087820860E-1,3.777688980E0,1.409039021E0,5.855650902E-1,4.074212987E0
6.112770860E-1,4.010928631E0,1.474212170E0,8.334002495E-1,4.353780653E0
6.137718580E-1,4.208485603E0,1.529227257E0,1.073020458E0,4.604482596E0
6.162667070E-1,4.425143719E0,1.590859890E0,1.279631615E0,4.873416583E0
6.187614780E-1,4.609171391E0,1.623072147E0,1.427461624E0,5.090822212E0
6.212564760E-1,4.829886436E0,1.578259468E0,1.559968948E0,5.315280713E0
6.237513240E-1,5.058726311E0,1.499439240E0,1.675484180E0,5.535907980E0
6.262460930E-1,5.280804157E0,1.432175159E0,1.777928829E0,5.753177310E0
6.287410810E-1,5.473541260E0,1.329422474E0,1.941370487E0,5.957846709E0
6.312358530E-1,5.602343559E0,1.268474102E0,2.155737877E0,6.135347235E0
6.337306970E-1,5.689499855E0,1.229395866E0,2.391394615E0,6.292900047E0
6.362256970E-1,5.726442337E0,1.179806709E0,2.705586910E0,6.442382031E0
6.387204680E-1,5.682476997E0,1.146131039E0,3.028874397E0,6.540507725E0
6.412152930E-1,5.603657722E0,1.098453522E0,3.355258465E0,6.623091376E0
6.437100640E-1,5.442841530E0,9.998717308E-1,3.683241367E0,6.647596134E0
6.462050620E-1,5.254354477E0,8.654794693E-1,4.037860870E0,6.682934691E0
6.486999110E-1,5.009480476E0,7.303023338E-1,4.423299789E0,6.722634690E0
6.511946800E-1,4.730987072E0,5.917673111E-1,4.787102699E0,6.756388050E0
6.536896880E-1,4.374315262E0,4.197616577E-1,5.213589191E0,6.818529615E0
6.561845360E-1,4.015006065E0,2.782840729E-1,5.627359867E0,6.918445982E0
6.586793050E-1,3.635688543E0,1.329221725E-1,6.035973549E0,7.047614928E0
6.611740740E-1,3.210111856E0,-4.539537430E-2,6.448816776E0,7.203757123E0
6.636690720E-1,2.763024330E0,-2.217669487E-1,6.869462013E0,7.407630686E0
6.661638440E-1,2.362066507E0,-4.343605042E-1,7.284275532E0,7.669986783E0
6.686589190E-1,1.928027153E0,-6.276531219E-1,7.661773682E0,7.925529200E0
6.711536900E-1,1.471230268E0,-8.239107132E-1,8.118137360E0,8.291411313E0
6.736485360E-1,1.099410772E0,-9.692249298E-1,8.576585770E0,8.700915152E0
6.761433050E-1,7.284526825E-1,-1.170401573E0,9.026071548E0,9.130742070E0
6.786383070E-1,4.227030277E-1,-1.361780167E0,9.346489906E0,9.454628318E0
